# t    s(t)
0.00 0.0000
0.10 0.2010
0.20 0.4040
0.30 0.6090
0.40 0.8160
0.50 1.0250
0.60 1.2360
0.70 1.4490
0.80 1.6640
0.90 1.8810
1.00 2.1000
1.10 2.3210
1.20 2.5440
1.30 2.7690
1.40 2.9960
1.50 3.2250
1.60 3.4560
1.70 3.6890
1.80 3.9240
1.90 4.1610
2.00 4.4000
